           9          -2          48  5.669178401763755E-003
 T F F F T F F F F F F F F F F F F F T F T F T F F F F F F F F F F F F F F F F F
 F F F F F F F F F F F F F F
 -1.3167057066971E+03  0.0000000000000E+00  0.0000000000000E+00  0.0000000000000E+00
  0.0000000000000E+00  0.0000000000000E+00  0.0000000000000E+00  0.0000000000000E+00
  0.0000000000000E+00  0.0000000000000E+00  0.0000000000000E+00  0.0000000000000E+00
  0.0000000000000E+00  0.0000000000000E+00  0.0000000000000E+00  0.0000000000000E+00
  0.0000000000000E+00  0.0000000000000E+00  0.0000000000000E+00  0.0000000000000E+00
  0.0000000000000E+00  0.0000000000000E+00  0.0000000000000E+00  0.0000000000000E+00
  0.0000000000000E+00  0.0000000000000E+00  0.0000000000000E+00  0.0000000000000E+00
  0.0000000000000E+00  0.0000000000000E+00  0.0000000000000E+00  0.0000000000000E+00
  0.0000000000000E+00  0.0000000000000E+00  0.0000000000000E+00  0.0000000000000E+00
  0.0000000000000E+00  0.0000000000000E+00  0.0000000000000E+00  0.0000000000000E+00
  0.0000000000000E+00  0.0000000000000E+00  0.0000000000000E+00  0.0000000000000E+00
  0.0000000000000E+00  0.0000000000000E+00  0.0000000000000E+00  0.0000000000000E+00
  0.0000000000000E+00  0.0000000000000E+00  0.0000000000000E+00  0.0000000000000E+00
  0.0000000000000E+00  0.0000000000000E+00  0.0000000000000E+00 -2.5891732251820E-04
 -3.1780013478895E-03  0.0000000000000E+00  0.0000000000000E+00  0.0000000000000E+00
 -3.0687076133751E-04  0.0000000000000E+00  0.0000000000000E+00  0.0000000000000E+00
  0.0000000000000E+00  0.0000000000000E+00  0.0000000000000E+00  0.0000000000000E+00
  0.0000000000000E+00  0.0000000000000E+00  0.0000000000000E+00  0.0000000000000E+00
  0.0000000000000E+00  0.0000000000000E+00 -2.4698569507431E-05  0.0000000000000E+00
 -4.3486810144105E-04  0.0000000000000E+00 -3.3085206539601E-04  0.0000000000000E+00
  0.0000000000000E+00  0.0000000000000E+00  0.0000000000000E+00  0.0000000000000E+00
  0.0000000000000E+00  0.0000000000000E+00  0.0000000000000E+00  0.0000000000000E+00
  0.0000000000000E+00  0.0000000000000E+00  0.0000000000000E+00  0.0000000000000E+00
  0.0000000000000E+00  0.0000000000000E+00  0.0000000000000E+00  0.0000000000000E+00
  0.0000000000000E+00  0.0000000000000E+00  0.0000000000000E+00  0.0000000000000E+00
  0.0000000000000E+00  0.0000000000000E+00  0.0000000000000E+00  0.0000000000000E+00
  0.0000000000000E+00  0.0000000000000E+00  0.0000000000000E+00  0.0000000000000E+00
  0.0000000000000E+00  0.0000000000000E+00  1.4948598584674E-04  4.6957519053259E-05
  0.0000000000000E+00  0.0000000000000E+00  0.0000000000000E+00  8.4045182460857E-05
  0.0000000000000E+00  0.0000000000000E+00  0.0000000000000E+00  0.0000000000000E+00
  0.0000000000000E+00  0.0000000000000E+00  0.0000000000000E+00  0.0000000000000E+00
  0.0000000000000E+00  0.0000000000000E+00  0.0000000000000E+00  0.0000000000000E+00
  0.0000000000000E+00 -8.0336690548938E-05  0.0000000000000E+00  1.3738034653213E-03
  0.0000000000000E+00  6.2476769920361E-04  0.0000000000000E+00  0.0000000000000E+00
  0.0000000000000E+00  0.0000000000000E+00  0.0000000000000E+00  0.0000000000000E+00
  0.0000000000000E+00  0.0000000000000E+00  0.0000000000000E+00  0.0000000000000E+00
  0.0000000000000E+00  0.0000000000000E+00  0.0000000000000E+00  0.0000000000000E+00
  0.0000000000000E+00  0.0000000000000E+00  0.0000000000000E+00  0.0000000000000E+00
  0.0000000000000E+00  0.0000000000000E+00  0.0000000000000E+00  0.0000000000000E+00
  0.0000000000000E+00  0.0000000000000E+00  0.0000000000000E+00  0.0000000000000E+00
  0.0000000000000E+00  0.0000000000000E+00  0.0000000000000E+00  0.0000000000000E+00
  0.0000000000000E+00  2.9976021664879E-15 -2.7910149039134E-05  0.0000000000000E+00
  0.0000000000000E+00  0.0000000000000E+00 -3.2471217611081E-03  0.0000000000000E+00
  0.0000000000000E+00  0.0000000000000E+00  0.0000000000000E+00  0.0000000000000E+00
  0.0000000000000E+00  0.0000000000000E+00  0.0000000000000E+00  0.0000000000000E+00
  0.0000000000000E+00  0.0000000000000E+00  0.0000000000000E+00  0.0000000000000E+00
 -7.8240496555915E-05  0.0000000000000E+00  6.0193049366097E-04  0.0000000000000E+00
  4.7919779969530E-04  0.0000000000000E+00  0.0000000000000E+00  0.0000000000000E+00
  0.0000000000000E+00  0.0000000000000E+00  0.0000000000000E+00  0.0000000000000E+00
  0.0000000000000E+00  0.0000000000000E+00  0.0000000000000E+00  0.0000000000000E+00
  0.0000000000000E+00  0.0000000000000E+00  0.0000000000000E+00  0.0000000000000E+00
  0.0000000000000E+00  0.0000000000000E+00  0.0000000000000E+00  0.0000000000000E+00
  0.0000000000000E+00  0.0000000000000E+00  0.0000000000000E+00  0.0000000000000E+00
  0.0000000000000E+00  0.0000000000000E+00  0.0000000000000E+00  0.0000000000000E+00
  0.0000000000000E+00  0.0000000000000E+00  0.0000000000000E+00  0.0000000000000E+00
 -1.6875389974302E-14  5.0283775733506E-04  0.0000000000000E+00  0.0000000000000E+00
  0.0000000000000E+00 -1.0667748091020E-04  0.0000000000000E+00  0.0000000000000E+00
  0.0000000000000E+00  0.0000000000000E+00  0.0000000000000E+00  0.0000000000000E+00
  0.0000000000000E+00  0.0000000000000E+00  0.0000000000000E+00  0.0000000000000E+00
  0.0000000000000E+00  0.0000000000000E+00  0.0000000000000E+00 -1.1314704465937E-04
  0.0000000000000E+00  6.5461411118850E-05  0.0000000000000E+00  7.2702994740936E-05
  0.0000000000000E+00  0.0000000000000E+00  0.0000000000000E+00  0.0000000000000E+00
  0.0000000000000E+00  0.0000000000000E+00  0.0000000000000E+00  0.0000000000000E+00
  0.0000000000000E+00  0.0000000000000E+00  0.0000000000000E+00  0.0000000000000E+00
  0.0000000000000E+00  0.0000000000000E+00  0.0000000000000E+00  0.0000000000000E+00
  0.0000000000000E+00  0.0000000000000E+00  0.0000000000000E+00  0.0000000000000E+00
  0.0000000000000E+00  0.0000000000000E+00  0.0000000000000E+00  0.0000000000000E+00
  0.0000000000000E+00  0.0000000000000E+00  0.0000000000000E+00  0.0000000000000E+00
  0.0000000000000E+00  0.0000000000000E+00  0.0000000000000E+00 -2.9897197168915E-04
  1.1522836925992E-04  0.0000000000000E+00  0.0000000000000E+00  0.0000000000000E+00
 -3.6334790515979E-04  0.0000000000000E+00  0.0000000000000E+00  0.0000000000000E+00
  0.0000000000000E+00  0.0000000000000E+00  0.0000000000000E+00  0.0000000000000E+00
  0.0000000000000E+00  0.0000000000000E+00  0.0000000000000E+00  0.0000000000000E+00
  0.0000000000000E+00  0.0000000000000E+00 -2.6539604963238E-04  0.0000000000000E+00
 -3.1242126940989E-04  0.0000000000000E+00 -2.5209504184365E-04  0.0000000000000E+00
  0.0000000000000E+00  0.0000000000000E+00  0.0000000000000E+00  0.0000000000000E+00
  0.0000000000000E+00  0.0000000000000E+00  0.0000000000000E+00  0.0000000000000E+00
  0.0000000000000E+00  0.0000000000000E+00  0.0000000000000E+00  0.0000000000000E+00
  0.0000000000000E+00  0.0000000000000E+00  0.0000000000000E+00  0.0000000000000E+00
  0.0000000000000E+00  0.0000000000000E+00  0.0000000000000E+00  0.0000000000000E+00
  0.0000000000000E+00  0.0000000000000E+00  0.0000000000000E+00  0.0000000000000E+00
  0.0000000000000E+00  0.0000000000000E+00  0.0000000000000E+00  0.0000000000000E+00
  0.0000000000000E+00  0.0000000000000E+00 -9.7699626167014E-15  1.0870958701981E-04
  0.0000000000000E+00  0.0000000000000E+00  0.0000000000000E+00  4.7698421677644E-04
  0.0000000000000E+00  0.0000000000000E+00  0.0000000000000E+00  0.0000000000000E+00
  0.0000000000000E+00  0.0000000000000E+00  0.0000000000000E+00  0.0000000000000E+00
  0.0000000000000E+00  0.0000000000000E+00  0.0000000000000E+00  0.0000000000000E+00
  0.0000000000000E+00 -5.0289039098095E-05  0.0000000000000E+00 -1.0112257208128E-04
  0.0000000000000E+00 -2.3507240817477E-04  0.0000000000000E+00  0.0000000000000E+00
  0.0000000000000E+00  0.0000000000000E+00  0.0000000000000E+00  0.0000000000000E+00
  0.0000000000000E+00  0.0000000000000E+00  0.0000000000000E+00  0.0000000000000E+00
  0.0000000000000E+00  0.0000000000000E+00  0.0000000000000E+00  0.0000000000000E+00
  0.0000000000000E+00  0.0000000000000E+00  0.0000000000000E+00  0.0000000000000E+00
  0.0000000000000E+00  0.0000000000000E+00  0.0000000000000E+00  0.0000000000000E+00
  0.0000000000000E+00  0.0000000000000E+00  0.0000000000000E+00  0.0000000000000E+00
  0.0000000000000E+00  0.0000000000000E+00  0.0000000000000E+00  0.0000000000000E+00
  0.0000000000000E+00  2.5891732249406E-04  2.4281673637905E-04  0.0000000000000E+00
  0.0000000000000E+00  0.0000000000000E+00  2.5665551629039E-04  0.0000000000000E+00
  0.0000000000000E+00  0.0000000000000E+00  0.0000000000000E+00  0.0000000000000E+00
  0.0000000000000E+00  0.0000000000000E+00  0.0000000000000E+00  0.0000000000000E+00
  0.0000000000000E+00  0.0000000000000E+00  0.0000000000000E+00  0.0000000000000E+00
  5.9076798260049E-04  0.0000000000000E+00  4.7650753596007E-04  0.0000000000000E+00
  5.9346663374682E-04  0.0000000000000E+00  0.0000000000000E+00  0.0000000000000E+00
  0.0000000000000E+00  0.0000000000000E+00  0.0000000000000E+00  0.0000000000000E+00
  0.0000000000000E+00  0.0000000000000E+00  0.0000000000000E+00  0.0000000000000E+00
  0.0000000000000E+00  0.0000000000000E+00  0.0000000000000E+00  0.0000000000000E+00
  0.0000000000000E+00  0.0000000000000E+00  0.0000000000000E+00  0.0000000000000E+00
  0.0000000000000E+00  0.0000000000000E+00  0.0000000000000E+00  0.0000000000000E+00
  0.0000000000000E+00  0.0000000000000E+00  0.0000000000000E+00  0.0000000000000E+00
  0.0000000000000E+00  0.0000000000000E+00  0.0000000000000E+00  0.0000000000000E+00
  1.4948598583786E-04  3.5283090181804E-05  0.0000000000000E+00  0.0000000000000E+00
  0.0000000000000E+00  2.4861521849218E-05  0.0000000000000E+00  0.0000000000000E+00
  0.0000000000000E+00  0.0000000000000E+00  0.0000000000000E+00  0.0000000000000E+00
  0.0000000000000E+00  0.0000000000000E+00  0.0000000000000E+00  0.0000000000000E+00
  0.0000000000000E+00  0.0000000000000E+00  0.0000000000000E+00  4.2647189882850E-04
  0.0000000000000E+00  8.0080039089125E-04  0.0000000000000E+00  7.7526380477777E-04
  0.0000000000000E+00  0.0000000000000E+00  0.0000000000000E+00  0.0000000000000E+00
  0.0000000000000E+00  0.0000000000000E+00  0.0000000000000E+00  0.0000000000000E+00
  0.0000000000000E+00  0.0000000000000E+00  0.0000000000000E+00  0.0000000000000E+00
  0.0000000000000E+00  0.0000000000000E+00  0.0000000000000E+00  0.0000000000000E+00
  0.0000000000000E+00  0.0000000000000E+00  0.0000000000000E+00  0.0000000000000E+00
  0.0000000000000E+00  0.0000000000000E+00  0.0000000000000E+00  0.0000000000000E+00
  0.0000000000000E+00  0.0000000000000E+00  0.0000000000000E+00  0.0000000000000E+00
  0.0000000000000E+00  0.0000000000000E+00  0.0000000000000E+00  1.2434497875802E-14
 -1.5235234467337E-06  0.0000000000000E+00  0.0000000000000E+00  0.0000000000000E+00
  4.7657021151659E-04  0.0000000000000E+00  0.0000000000000E+00  0.0000000000000E+00
  0.0000000000000E+00  0.0000000000000E+00  0.0000000000000E+00  0.0000000000000E+00
  0.0000000000000E+00  0.0000000000000E+00  0.0000000000000E+00  0.0000000000000E+00
  0.0000000000000E+00  0.0000000000000E+00  3.2407778930144E-04  0.0000000000000E+00
  6.3998849675095E-04  0.0000000000000E+00  9.0864484743669E-04  0.0000000000000E+00
  0.0000000000000E+00  0.0000000000000E+00  0.0000000000000E+00  0.0000000000000E+00
  0.0000000000000E+00  0.0000000000000E+00  0.0000000000000E+00  0.0000000000000E+00
  0.0000000000000E+00  0.0000000000000E+00  0.0000000000000E+00  0.0000000000000E+00
  0.0000000000000E+00  0.0000000000000E+00  0.0000000000000E+00  0.0000000000000E+00
  0.0000000000000E+00  0.0000000000000E+00  0.0000000000000E+00  0.0000000000000E+00
  0.0000000000000E+00  0.0000000000000E+00  0.0000000000000E+00  0.0000000000000E+00
  0.0000000000000E+00  0.0000000000000E+00  0.0000000000000E+00  0.0000000000000E+00
  0.0000000000000E+00  0.0000000000000E+00  4.8357720057624E-05  2.8433215697721E-04
  0.0000000000000E+00  0.0000000000000E+00  0.0000000000000E+00 -3.0388174399931E-05
  0.0000000000000E+00  0.0000000000000E+00  0.0000000000000E+00  0.0000000000000E+00
  0.0000000000000E+00  0.0000000000000E+00  0.0000000000000E+00  0.0000000000000E+00
  0.0000000000000E+00  0.0000000000000E+00  0.0000000000000E+00  0.0000000000000E+00
  0.0000000000000E+00 -5.6726707132260E-04  0.0000000000000E+00 -4.3141806935765E-05
  0.0000000000000E+00 -2.6452266680810E-04  0.0000000000000E+00  0.0000000000000E+00
  0.0000000000000E+00  0.0000000000000E+00  0.0000000000000E+00  0.0000000000000E+00
  0.0000000000000E+00  0.0000000000000E+00  0.0000000000000E+00  0.0000000000000E+00
  0.0000000000000E+00  0.0000000000000E+00  0.0000000000000E+00  0.0000000000000E+00
  0.0000000000000E+00  0.0000000000000E+00  0.0000000000000E+00  0.0000000000000E+00
  0.0000000000000E+00  0.0000000000000E+00  0.0000000000000E+00  0.0000000000000E+00
  0.0000000000000E+00  0.0000000000000E+00  0.0000000000000E+00  0.0000000000000E+00
  0.0000000000000E+00  0.0000000000000E+00  0.0000000000000E+00  0.0000000000000E+00
  0.0000000000000E+00 -7.8126577926785E-04 -9.6085803053914E-04  0.0000000000000E+00
  0.0000000000000E+00  0.0000000000000E+00 -1.7145747215963E-04  0.0000000000000E+00
  0.0000000000000E+00  0.0000000000000E+00  0.0000000000000E+00  0.0000000000000E+00
  0.0000000000000E+00  0.0000000000000E+00  0.0000000000000E+00  0.0000000000000E+00
  0.0000000000000E+00  0.0000000000000E+00  0.0000000000000E+00  0.0000000000000E+00
 -8.6932327844957E-04  0.0000000000000E+00 -3.4470013515144E-03  0.0000000000000E+00
 -2.3378653334776E-03  0.0000000000000E+00  0.0000000000000E+00  0.0000000000000E+00
  0.0000000000000E+00  0.0000000000000E+00  0.0000000000000E+00  0.0000000000000E+00
  0.0000000000000E+00  0.0000000000000E+00  0.0000000000000E+00  0.0000000000000E+00
  0.0000000000000E+00  0.0000000000000E+00  0.0000000000000E+00  0.0000000000000E+00
  0.0000000000000E+00  0.0000000000000E+00  0.0000000000000E+00  0.0000000000000E+00
  0.0000000000000E+00  0.0000000000000E+00  0.0000000000000E+00  0.0000000000000E+00
  0.0000000000000E+00  0.0000000000000E+00  0.0000000000000E+00  0.0000000000000E+00
  0.0000000000000E+00  0.0000000000000E+00  0.0000000000000E+00  0.0000000000000E+00
  1.4771048424400E-06 -7.1953883417297E-05  0.0000000000000E+00  0.0000000000000E+00
  0.0000000000000E+00  4.8099184766404E-04  0.0000000000000E+00  0.0000000000000E+00
  0.0000000000000E+00  0.0000000000000E+00  0.0000000000000E+00  0.0000000000000E+00
  0.0000000000000E+00  0.0000000000000E+00  0.0000000000000E+00  0.0000000000000E+00
  0.0000000000000E+00  0.0000000000000E+00  0.0000000000000E+00 -3.0898586843620E-04
  0.0000000000000E+00 -1.5495443050964E-03  0.0000000000000E+00 -1.7137647660723E-03
  0.0000000000000E+00  0.0000000000000E+00  0.0000000000000E+00  0.0000000000000E+00
  0.0000000000000E+00  0.0000000000000E+00  0.0000000000000E+00  0.0000000000000E+00
  0.0000000000000E+00  0.0000000000000E+00  0.0000000000000E+00  0.0000000000000E+00
  0.0000000000000E+00  0.0000000000000E+00  0.0000000000000E+00  0.0000000000000E+00
  0.0000000000000E+00  0.0000000000000E+00  0.0000000000000E+00  0.0000000000000E+00
  0.0000000000000E+00  0.0000000000000E+00  0.0000000000000E+00  0.0000000000000E+00
  0.0000000000000E+00  0.0000000000000E+00  0.0000000000000E+00  0.0000000000000E+00
  0.0000000000000E+00  0.0000000000000E+00  0.0000000000000E+00  6.5241715194642E-04
  1.4404519265072E-03  0.0000000000000E+00  0.0000000000000E+00  0.0000000000000E+00
 -5.2108523048267E-05  0.0000000000000E+00  0.0000000000000E+00  0.0000000000000E+00
  0.0000000000000E+00  0.0000000000000E+00  0.0000000000000E+00  0.0000000000000E+00
  0.0000000000000E+00  0.0000000000000E+00  0.0000000000000E+00  0.0000000000000E+00
  0.0000000000000E+00  0.0000000000000E+00  6.9510329061861E-04  0.0000000000000E+00
  5.5952865077380E-04  0.0000000000000E+00  5.1864333357177E-04  0.0000000000000E+00
  0.0000000000000E+00  0.0000000000000E+00  0.0000000000000E+00  0.0000000000000E+00
  0.0000000000000E+00  0.0000000000000E+00  0.0000000000000E+00  0.0000000000000E+00
  0.0000000000000E+00  0.0000000000000E+00  0.0000000000000E+00  0.0000000000000E+00
  0.0000000000000E+00  0.0000000000000E+00  0.0000000000000E+00  0.0000000000000E+00
  0.0000000000000E+00  0.0000000000000E+00  0.0000000000000E+00  0.0000000000000E+00
  0.0000000000000E+00  0.0000000000000E+00  0.0000000000000E+00  0.0000000000000E+00
  0.0000000000000E+00  0.0000000000000E+00  0.0000000000000E+00  0.0000000000000E+00
  0.0000000000000E+00  0.0000000000000E+00  4.3251190367588E-04  4.1631082167104E-04
  0.0000000000000E+00  0.0000000000000E+00  0.0000000000000E+00  3.9515353862907E-04
  0.0000000000000E+00  0.0000000000000E+00  0.0000000000000E+00  0.0000000000000E+00
  0.0000000000000E+00  0.0000000000000E+00  0.0000000000000E+00  0.0000000000000E+00
  0.0000000000000E+00  0.0000000000000E+00  0.0000000000000E+00  0.0000000000000E+00
  0.0000000000000E+00  3.7206888757879E-04  0.0000000000000E+00  4.7509326551864E-04
  0.0000000000000E+00  5.2934002654403E-04  0.0000000000000E+00  0.0000000000000E+00
  0.0000000000000E+00  0.0000000000000E+00  0.0000000000000E+00  0.0000000000000E+00
  0.0000000000000E+00  0.0000000000000E+00  0.0000000000000E+00  0.0000000000000E+00
  0.0000000000000E+00  0.0000000000000E+00  0.0000000000000E+00  0.0000000000000E+00
  0.0000000000000E+00  0.0000000000000E+00  0.0000000000000E+00  0.0000000000000E+00
  0.0000000000000E+00  0.0000000000000E+00  0.0000000000000E+00  0.0000000000000E+00
  0.0000000000000E+00  0.0000000000000E+00  0.0000000000000E+00  0.0000000000000E+00
  0.0000000000000E+00  0.0000000000000E+00  0.0000000000000E+00  0.0000000000000E+00
  0.0000000000000E+00  1.4771048202356E-06 -7.0767251523884E-04  0.0000000000000E+00
  0.0000000000000E+00  0.0000000000000E+00  8.9899049579767E-04  0.0000000000000E+00
  0.0000000000000E+00  0.0000000000000E+00  0.0000000000000E+00  0.0000000000000E+00
  0.0000000000000E+00  0.0000000000000E+00  0.0000000000000E+00  0.0000000000000E+00
  0.0000000000000E+00  0.0000000000000E+00  0.0000000000000E+00  0.0000000000000E+00
 -7.8320051180913E-05  0.0000000000000E+00  1.1027127223917E-04  0.0000000000000E+00
  1.5731098658600E-04  0.0000000000000E+00  0.0000000000000E+00  0.0000000000000E+00
  0.0000000000000E+00  0.0000000000000E+00  0.0000000000000E+00  0.0000000000000E+00
  0.0000000000000E+00  0.0000000000000E+00  0.0000000000000E+00  0.0000000000000E+00
  0.0000000000000E+00  0.0000000000000E+00  0.0000000000000E+00  0.0000000000000E+00
  0.0000000000000E+00  0.0000000000000E+00  0.0000000000000E+00  0.0000000000000E+00
  0.0000000000000E+00  0.0000000000000E+00  0.0000000000000E+00  0.0000000000000E+00
  0.0000000000000E+00  0.0000000000000E+00  0.0000000000000E+00  0.0000000000000E+00
  0.0000000000000E+00  0.0000000000000E+00  0.0000000000000E+00  0.0000000000000E+00
 -7.0077487198628E-04 -7.8170764534669E-04  0.0000000000000E+00  0.0000000000000E+00
  0.0000000000000E+00 -7.6333203786927E-04  0.0000000000000E+00  0.0000000000000E+00
  0.0000000000000E+00  0.0000000000000E+00  0.0000000000000E+00  0.0000000000000E+00
  0.0000000000000E+00  0.0000000000000E+00  0.0000000000000E+00  0.0000000000000E+00
  0.0000000000000E+00  0.0000000000000E+00  0.0000000000000E+00 -5.9188345540662E-04
  0.0000000000000E+00 -6.4620286574435E-04  0.0000000000000E+00 -5.6711853658609E-04
  0.0000000000000E+00  0.0000000000000E+00  0.0000000000000E+00  0.0000000000000E+00
  0.0000000000000E+00  0.0000000000000E+00  0.0000000000000E+00  0.0000000000000E+00
  0.0000000000000E+00  0.0000000000000E+00  0.0000000000000E+00  0.0000000000000E+00
  0.0000000000000E+00  0.0000000000000E+00  0.0000000000000E+00  0.0000000000000E+00
  0.0000000000000E+00  0.0000000000000E+00  0.0000000000000E+00  0.0000000000000E+00
  0.0000000000000E+00  0.0000000000000E+00  0.0000000000000E+00  0.0000000000000E+00
  0.0000000000000E+00  0.0000000000000E+00  0.0000000000000E+00  0.0000000000000E+00
  0.0000000000000E+00  0.0000000000000E+00  0.0000000000000E+00  3.4875387558353E-04
  2.9701597192577E-04  0.0000000000000E+00  0.0000000000000E+00  0.0000000000000E+00
  4.4309138198928E-04  0.0000000000000E+00  0.0000000000000E+00  0.0000000000000E+00
  0.0000000000000E+00  0.0000000000000E+00  0.0000000000000E+00  0.0000000000000E+00
  0.0000000000000E+00  0.0000000000000E+00  0.0000000000000E+00  0.0000000000000E+00
  0.0000000000000E+00  0.0000000000000E+00  3.7121096082826E-04  0.0000000000000E+00
  3.2486344438976E-04  0.0000000000000E+00  3.6373531827039E-04  0.0000000000000E+00
  0.0000000000000E+00  0.0000000000000E+00  0.0000000000000E+00  0.0000000000000E+00
  0.0000000000000E+00  0.0000000000000E+00  0.0000000000000E+00  0.0000000000000E+00
  0.0000000000000E+00  0.0000000000000E+00  0.0000000000000E+00  0.0000000000000E+00
  0.0000000000000E+00  0.0000000000000E+00  0.0000000000000E+00  0.0000000000000E+00
  0.0000000000000E+00  0.0000000000000E+00  0.0000000000000E+00  0.0000000000000E+00
  0.0000000000000E+00  0.0000000000000E+00  0.0000000000000E+00  0.0000000000000E+00
  0.0000000000000E+00  0.0000000000000E+00  0.0000000000000E+00  0.0000000000000E+00
  0.0000000000000E+00  0.0000000000000E+00  1.4771048348905E-06  5.6118145006501E-06
  0.0000000000000E+00  0.0000000000000E+00  0.0000000000000E+00 -2.3397767720645E-04
  0.0000000000000E+00  0.0000000000000E+00  0.0000000000000E+00  0.0000000000000E+00
  0.0000000000000E+00  0.0000000000000E+00  0.0000000000000E+00  0.0000000000000E+00
  0.0000000000000E+00  0.0000000000000E+00  0.0000000000000E+00  0.0000000000000E+00
  0.0000000000000E+00  1.5232046605984E-04  0.0000000000000E+00  6.8656608692486E-05
  0.0000000000000E+00  1.5732864411788E-04  0.0000000000000E+00  0.0000000000000E+00
  0.0000000000000E+00  0.0000000000000E+00  0.0000000000000E+00  0.0000000000000E+00
  0.0000000000000E+00  0.0000000000000E+00  0.0000000000000E+00  0.0000000000000E+00
  0.0000000000000E+00  0.0000000000000E+00  0.0000000000000E+00  0.0000000000000E+00
  0.0000000000000E+00  0.0000000000000E+00  0.0000000000000E+00  0.0000000000000E+00
  0.0000000000000E+00  0.0000000000000E+00  0.0000000000000E+00  0.0000000000000E+00
  0.0000000000000E+00  0.0000000000000E+00  0.0000000000000E+00  0.0000000000000E+00
  0.0000000000000E+00  0.0000000000000E+00  0.0000000000000E+00  0.0000000000000E+00
  0.0000000000000E+00  7.0077487200138E-04  1.8541648142296E-03  0.0000000000000E+00
  0.0000000000000E+00  0.0000000000000E+00  1.2648696204085E-03  0.0000000000000E+00
  0.0000000000000E+00  0.0000000000000E+00  0.0000000000000E+00  0.0000000000000E+00
  0.0000000000000E+00  0.0000000000000E+00  0.0000000000000E+00  0.0000000000000E+00
  0.0000000000000E+00  0.0000000000000E+00  0.0000000000000E+00  0.0000000000000E+00
  7.6122240169507E-04  0.0000000000000E+00  7.7921845089790E-04  0.0000000000000E+00
  7.6080130711897E-04  0.0000000000000E+00  0.0000000000000E+00  0.0000000000000E+00
  0.0000000000000E+00  0.0000000000000E+00  0.0000000000000E+00  0.0000000000000E+00
  0.0000000000000E+00  0.0000000000000E+00  0.0000000000000E+00  0.0000000000000E+00
  0.0000000000000E+00  0.0000000000000E+00  0.0000000000000E+00  0.0000000000000E+00
  0.0000000000000E+00  0.0000000000000E+00  0.0000000000000E+00  0.0000000000000E+00
  0.0000000000000E+00  0.0000000000000E+00  0.0000000000000E+00  0.0000000000000E+00
  0.0000000000000E+00  0.0000000000000E+00  0.0000000000000E+00  0.0000000000000E+00
  0.0000000000000E+00  0.0000000000000E+00  0.0000000000000E+00  0.0000000000000E+00
  3.4875387560884E-04  6.5021784901109E-04  0.0000000000000E+00  0.0000000000000E+00
  0.0000000000000E+00  5.8416400889660E-04  0.0000000000000E+00  0.0000000000000E+00
  0.0000000000000E+00  0.0000000000000E+00  0.0000000000000E+00  0.0000000000000E+00
  0.0000000000000E+00  0.0000000000000E+00  0.0000000000000E+00  0.0000000000000E+00
  0.0000000000000E+00  0.0000000000000E+00  0.0000000000000E+00  4.4729761244033E-04
  0.0000000000000E+00  5.1101049248237E-04  0.0000000000000E+00  4.8571426266841E-04
  0.0000000000000E+00  0.0000000000000E+00  0.0000000000000E+00  0.0000000000000E+00
  0.0000000000000E+00  0.0000000000000E+00  0.0000000000000E+00  0.0000000000000E+00
  0.0000000000000E+00  0.0000000000000E+00  0.0000000000000E+00  0.0000000000000E+00
  0.0000000000000E+00  0.0000000000000E+00  0.0000000000000E+00  0.0000000000000E+00
  0.0000000000000E+00  0.0000000000000E+00  0.0000000000000E+00  0.0000000000000E+00
  0.0000000000000E+00  0.0000000000000E+00  0.0000000000000E+00  0.0000000000000E+00
  0.0000000000000E+00  0.0000000000000E+00  0.0000000000000E+00  0.0000000000000E+00
  0.0000000000000E+00  0.0000000000000E+00  0.0000000000000E+00 -1.4771048304496E-06
  4.4285869552541E-04  0.0000000000000E+00  0.0000000000000E+00  0.0000000000000E+00
  4.7835988320344E-04  0.0000000000000E+00  0.0000000000000E+00  0.0000000000000E+00
  0.0000000000000E+00  0.0000000000000E+00  0.0000000000000E+00  0.0000000000000E+00
  0.0000000000000E+00  0.0000000000000E+00  0.0000000000000E+00  0.0000000000000E+00
  0.0000000000000E+00  0.0000000000000E+00  8.7105646112029E-05  0.0000000000000E+00
  1.1872707318661E-04  0.0000000000000E+00  9.9857316563590E-05  0.0000000000000E+00
  0.0000000000000E+00  0.0000000000000E+00  0.0000000000000E+00  0.0000000000000E+00
  0.0000000000000E+00  0.0000000000000E+00  0.0000000000000E+00  0.0000000000000E+00
  0.0000000000000E+00  0.0000000000000E+00  0.0000000000000E+00  0.0000000000000E+00
  0.0000000000000E+00  0.0000000000000E+00  0.0000000000000E+00  0.0000000000000E+00
  0.0000000000000E+00  0.0000000000000E+00  0.0000000000000E+00  0.0000000000000E+00
  0.0000000000000E+00  0.0000000000000E+00  0.0000000000000E+00  0.0000000000000E+00
  0.0000000000000E+00  0.0000000000000E+00  0.0000000000000E+00  0.0000000000000E+00
  0.0000000000000E+00  0.0000000000000E+00 -4.8357720056735E-05  2.8352594325298E-04
  0.0000000000000E+00  0.0000000000000E+00  0.0000000000000E+00  2.7711200388048E-04
  0.0000000000000E+00  0.0000000000000E+00  0.0000000000000E+00  0.0000000000000E+00
  0.0000000000000E+00  0.0000000000000E+00  0.0000000000000E+00  0.0000000000000E+00
  0.0000000000000E+00  0.0000000000000E+00  0.0000000000000E+00  0.0000000000000E+00
  0.0000000000000E+00 -9.8972905927752E-05  0.0000000000000E+00 -4.6400173467909E-05
  0.0000000000000E+00 -3.3036115573815E-05  0.0000000000000E+00  0.0000000000000E+00
  0.0000000000000E+00  0.0000000000000E+00  0.0000000000000E+00  0.0000000000000E+00
  0.0000000000000E+00  0.0000000000000E+00  0.0000000000000E+00  0.0000000000000E+00
  0.0000000000000E+00  0.0000000000000E+00  0.0000000000000E+00  0.0000000000000E+00
  0.0000000000000E+00  0.0000000000000E+00  0.0000000000000E+00  0.0000000000000E+00
  0.0000000000000E+00  0.0000000000000E+00  0.0000000000000E+00  0.0000000000000E+00
  0.0000000000000E+00  0.0000000000000E+00  0.0000000000000E+00  0.0000000000000E+00
  0.0000000000000E+00  0.0000000000000E+00  0.0000000000000E+00  0.0000000000000E+00
  0.0000000000000E+00 -7.8126577928339E-04 -9.9816266277264E-04  0.0000000000000E+00
  0.0000000000000E+00  0.0000000000000E+00 -1.4219592004538E-03  0.0000000000000E+00
  0.0000000000000E+00  0.0000000000000E+00  0.0000000000000E+00  0.0000000000000E+00
  0.0000000000000E+00  0.0000000000000E+00  0.0000000000000E+00  0.0000000000000E+00
  0.0000000000000E+00  0.0000000000000E+00  0.0000000000000E+00  0.0000000000000E+00
 -7.8245445955005E-04  0.0000000000000E+00 -2.2321806896386E-04  0.0000000000000E+00
 -7.4716293361776E-04  0.0000000000000E+00  0.0000000000000E+00  0.0000000000000E+00
  0.0000000000000E+00  0.0000000000000E+00  0.0000000000000E+00  0.0000000000000E+00
  0.0000000000000E+00  0.0000000000000E+00  0.0000000000000E+00  0.0000000000000E+00
  0.0000000000000E+00  0.0000000000000E+00  0.0000000000000E+00  0.0000000000000E+00
  0.0000000000000E+00  0.0000000000000E+00  0.0000000000000E+00  0.0000000000000E+00
  0.0000000000000E+00  0.0000000000000E+00  0.0000000000000E+00  0.0000000000000E+00
  0.0000000000000E+00  0.0000000000000E+00  0.0000000000000E+00  0.0000000000000E+00
  0.0000000000000E+00  0.0000000000000E+00  0.0000000000000E+00  0.0000000000000E+00
 -1.4771048264528E-06  3.3042809600436E-04  0.0000000000000E+00  0.0000000000000E+00
  0.0000000000000E+00  9.0622328401357E-04  0.0000000000000E+00  0.0000000000000E+00
  0.0000000000000E+00  0.0000000000000E+00  0.0000000000000E+00  0.0000000000000E+00
  0.0000000000000E+00  0.0000000000000E+00  0.0000000000000E+00  0.0000000000000E+00
  0.0000000000000E+00  0.0000000000000E+00  0.0000000000000E+00  1.3868324491018E-05
  0.0000000000000E+00 -3.5247845419750E-05  0.0000000000000E+00 -8.6751891998027E-05
  0.0000000000000E+00  0.0000000000000E+00  0.0000000000000E+00  0.0000000000000E+00
  0.0000000000000E+00  0.0000000000000E+00  0.0000000000000E+00  0.0000000000000E+00
  0.0000000000000E+00  0.0000000000000E+00  0.0000000000000E+00  0.0000000000000E+00
  0.0000000000000E+00  0.0000000000000E+00  0.0000000000000E+00  0.0000000000000E+00
  0.0000000000000E+00  0.0000000000000E+00  0.0000000000000E+00  0.0000000000000E+00
  0.0000000000000E+00  0.0000000000000E+00  0.0000000000000E+00  0.0000000000000E+00
  0.0000000000000E+00  0.0000000000000E+00  0.0000000000000E+00  0.0000000000000E+00
  0.0000000000000E+00  0.0000000000000E+00  0.0000000000000E+00 -6.5241715191866E-04
 -6.4842034171275E-04  0.0000000000000E+00  0.0000000000000E+00  0.0000000000000E+00
 -5.3926016302752E-04  0.0000000000000E+00  0.0000000000000E+00  0.0000000000000E+00
  0.0000000000000E+00  0.0000000000000E+00  0.0000000000000E+00  0.0000000000000E+00
  0.0000000000000E+00  0.0000000000000E+00  0.0000000000000E+00  0.0000000000000E+00
  0.0000000000000E+00  0.0000000000000E+00 -6.5112462796302E-04  0.0000000000000E+00
 -7.1010310111241E-04  0.0000000000000E+00 -7.5008488468897E-04  0.0000000000000E+00
  0.0000000000000E+00  0.0000000000000E+00  0.0000000000000E+00  0.0000000000000E+00
  0.0000000000000E+00  0.0000000000000E+00  0.0000000000000E+00  0.0000000000000E+00
  0.0000000000000E+00  0.0000000000000E+00  0.0000000000000E+00  0.0000000000000E+00
  0.0000000000000E+00  0.0000000000000E+00  0.0000000000000E+00  0.0000000000000E+00
  0.0000000000000E+00  0.0000000000000E+00  0.0000000000000E+00  0.0000000000000E+00
  0.0000000000000E+00  0.0000000000000E+00  0.0000000000000E+00  0.0000000000000E+00
  0.0000000000000E+00  0.0000000000000E+00  0.0000000000000E+00  0.0000000000000E+00
  0.0000000000000E+00  0.0000000000000E+00  4.3251190368387E-04  3.9800707228910E-04
  0.0000000000000E+00  0.0000000000000E+00  0.0000000000000E+00  4.2544894423724E-04
  0.0000000000000E+00  0.0000000000000E+00  0.0000000000000E+00  0.0000000000000E+00
  0.0000000000000E+00  0.0000000000000E+00  0.0000000000000E+00  0.0000000000000E+00
  0.0000000000000E+00  0.0000000000000E+00  0.0000000000000E+00  0.0000000000000E+00
  0.0000000000000E+00  3.8046111860535E-04  0.0000000000000E+00  4.9706963133023E-04
  0.0000000000000E+00  5.5830219793584E-04  0.0000000000000E+00  0.0000000000000E+00
  0.0000000000000E+00  0.0000000000000E+00  0.0000000000000E+00  0.0000000000000E+00
  0.0000000000000E+00  0.0000000000000E+00  0.0000000000000E+00  0.0000000000000E+00
  0.0000000000000E+00  0.0000000000000E+00  0.0000000000000E+00  0.0000000000000E+00
  0.0000000000000E+00  0.0000000000000E+00  0.0000000000000E+00  0.0000000000000E+00
  0.0000000000000E+00  0.0000000000000E+00  0.0000000000000E+00  0.0000000000000E+00
  0.0000000000000E+00  0.0000000000000E+00  0.0000000000000E+00  0.0000000000000E+00
  0.0000000000000E+00  0.0000000000000E+00  0.0000000000000E+00  0.0000000000000E+00
  0.0000000000000E+00 -1.4771048455486E-06 -7.8548122076860E-05  0.0000000000000E+00
  0.0000000000000E+00  0.0000000000000E+00 -2.3702050044072E-04  0.0000000000000E+00
  0.0000000000000E+00  0.0000000000000E+00  0.0000000000000E+00  0.0000000000000E+00
  0.0000000000000E+00  0.0000000000000E+00  0.0000000000000E+00  0.0000000000000E+00
  0.0000000000000E+00  0.0000000000000E+00  0.0000000000000E+00  0.0000000000000E+00
 -6.1536770494364E-05  0.0000000000000E+00  1.4634077811770E-04  0.0000000000000E+00
  2.3324947174874E-04  0.0000000000000E+00  0.0000000000000E+00  0.0000000000000E+00
  0.0000000000000E+00  0.0000000000000E+00  0.0000000000000E+00  0.0000000000000E+00
  0.0000000000000E+00  0.0000000000000E+00  0.0000000000000E+00  0.0000000000000E+00
  0.0000000000000E+00  0.0000000000000E+00  0.0000000000000E+00  0.0000000000000E+00
  0.0000000000000E+00  0.0000000000000E+00  0.0000000000000E+00  0.0000000000000E+00
  0.0000000000000E+00  0.0000000000000E+00  0.0000000000000E+00  0.0000000000000E+00
  0.0000000000000E+00  0.0000000000000E+00  0.0000000000000E+00  0.0000000000000E+00
  0.0000000000000E+00  0.0000000000000E+00  0.0000000000000E+00  0.0000000000000E+00
  0.0000000000000E+00  0.0000000000000E+00  0.0000000000000E+00  0.0000000000000E+00
  0.0000000000000E+00  0.0000000000000E+00  0.0000000000000E+00  0.0000000000000E+00
  0.0000000000000E+00  0.0000000000000E+00  0.0000000000000E+00  0.0000000000000E+00
  0.0000000000000E+00  0.0000000000000E+00  0.0000000000000E+00  0.0000000000000E+00
  0.0000000000000E+00  0.0000000000000E+00  0.0000000000000E+00  0.0000000000000E+00
  0.0000000000000E+00  0.0000000000000E+00  0.0000000000000E+00  0.0000000000000E+00
  0.0000000000000E+00  0.0000000000000E+00  0.0000000000000E+00  0.0000000000000E+00
  0.0000000000000E+00  0.0000000000000E+00  0.0000000000000E+00  0.0000000000000E+00
  0.0000000000000E+00  0.0000000000000E+00  0.0000000000000E+00  0.0000000000000E+00
  0.0000000000000E+00  0.0000000000000E+00  0.0000000000000E+00  0.0000000000000E+00
  0.0000000000000E+00  0.0000000000000E+00  0.0000000000000E+00  0.0000000000000E+00
  0.0000000000000E+00  0.0000000000000E+00  0.0000000000000E+00  0.0000000000000E+00
  0.0000000000000E+00  0.0000000000000E+00  0.0000000000000E+00  0.0000000000000E+00
  0.0000000000000E+00  0.0000000000000E+00  0.0000000000000E+00  0.0000000000000E+00
  0.0000000000000E+00  0.0000000000000E+00  0.0000000000000E+00  0.0000000000000E+00
  0.0000000000000E+00  0.0000000000000E+00  0.0000000000000E+00  0.0000000000000E+00
  0.0000000000000E+00  0.0000000000000E+00  0.0000000000000E+00  0.0000000000000E+00
  0.0000000000000E+00  0.0000000000000E+00  0.0000000000000E+00  0.0000000000000E+00
  0.0000000000000E+00  0.0000000000000E+00  0.0000000000000E+00  0.0000000000000E+00
  0.0000000000000E+00  0.0000000000000E+00  0.0000000000000E+00  0.0000000000000E+00
  0.0000000000000E+00  0.0000000000000E+00  0.0000000000000E+00  0.0000000000000E+00
  0.0000000000000E+00  0.0000000000000E+00  0.0000000000000E+00  0.0000000000000E+00
  0.0000000000000E+00  0.0000000000000E+00  0.0000000000000E+00  0.0000000000000E+00
  0.0000000000000E+00  0.0000000000000E+00  0.0000000000000E+00  0.0000000000000E+00
  0.0000000000000E+00  0.0000000000000E+00  0.0000000000000E+00  0.0000000000000E+00
  0.0000000000000E+00  0.0000000000000E+00  0.0000000000000E+00  0.0000000000000E+00
  0.0000000000000E+00  0.0000000000000E+00  0.0000000000000E+00  0.0000000000000E+00
  0.0000000000000E+00  0.0000000000000E+00  0.0000000000000E+00  0.0000000000000E+00
  0.0000000000000E+00  0.0000000000000E+00  0.0000000000000E+00  0.0000000000000E+00
  0.0000000000000E+00  0.0000000000000E+00  0.0000000000000E+00  0.0000000000000E+00
  0.0000000000000E+00  0.0000000000000E+00  0.0000000000000E+00  0.0000000000000E+00
  0.0000000000000E+00  0.0000000000000E+00  0.0000000000000E+00  0.0000000000000E+00
  0.0000000000000E+00  0.0000000000000E+00  0.0000000000000E+00  0.0000000000000E+00
  0.0000000000000E+00  0.0000000000000E+00  0.0000000000000E+00  0.0000000000000E+00
  0.0000000000000E+00  0.0000000000000E+00  0.0000000000000E+00  0.0000000000000E+00
  0.0000000000000E+00  0.0000000000000E+00  0.0000000000000E+00  0.0000000000000E+00
  0.0000000000000E+00  0.0000000000000E+00  0.0000000000000E+00  0.0000000000000E+00
  0.0000000000000E+00  0.0000000000000E+00  0.0000000000000E+00  0.0000000000000E+00
  0.0000000000000E+00  0.0000000000000E+00  0.0000000000000E+00  0.0000000000000E+00
  0.0000000000000E+00  0.0000000000000E+00  0.0000000000000E+00  0.0000000000000E+00
  0.0000000000000E+00  0.0000000000000E+00  0.0000000000000E+00  0.0000000000000E+00
  0.0000000000000E+00
  1.8404599723539E-02  6.4643309097391E-04  2.1510886617986E-04 -3.1714130999813E-03
 -2.6108892572979E-03 -6.8655562856073E-04  1.0151299160553E-04  7.2126449728243E-04
  1.2170581436370E-05 -1.9603574977401E-03  1.4823514378907E-03  6.0606756426700E-04
 -6.5609177128072E-03  1.3012723586289E-04  5.9135266673617E-03  6.7621607078137E-04
  4.3245595030549E-04 -3.4937681528432E-05 -9.6138446645663E-03 -2.5091019651980E-03
 -3.7186009559793E-03 -2.7672807288309E-03  1.8114896204731E-03 -2.7786219767412E-03
 -3.5469972109560E-05  2.8708948697314E-04  6.4214570682636E-04  6.4643309097391E-04
  1.9151036361713E-02  3.7257948538205E-04 -1.1683602627330E-03 -9.8946237225676E-04
 -3.8232970002623E-04 -7.2126449728243E-04 -4.2623884638436E-03 -7.8573946545790E-04
  1.9096409108085E-03 -1.0206639357898E-02 -3.9439572545102E-03 -3.7876771343335E-04
 -1.6462877141622E-03  2.0569992076574E-04  6.9798161541472E-04  3.7995977979743E-04
  7.2131471355502E-04 -2.9363914381158E-03 -2.5531521910715E-03 -1.4471087201901E-03
  2.3203845697693E-03 -5.4399246981385E-03  5.2241142802748E-03  2.1563821863915E-05
  1.0916458226884E-03  3.3040043702456E-04  2.1510886617986E-04  3.7257948538205E-04
  2.0472854223759E-02  6.7438504712436E-04  4.0340976543168E-04 -3.0060438506822E-03
  1.2170581436370E-05  7.8573946545790E-04 -3.0060438506822E-03  6.5332947613908E-04
 -5.0445848636620E-03 -3.9977933673036E-03  5.9509672433731E-03  3.2209475744168E-04
 -7.5515789466596E-03  5.2139252231759E-04 -7.8596507405364E-04  1.9619347969539E-03
 -4.6954033815473E-03 -1.9564925084534E-03 -3.9977933673036E-03 -2.6965413793163E-03
  5.3147361885710E-03 -7.5515789466596E-03 -9.4136198177657E-04  5.8556632643460E-05
  1.9619347969539E-03 -3.1714130999813E-03 -1.1683602627330E-03  6.7438504712436E-04
  1.9524254680799E-02  0.0000000000000E+00 -4.3021773235972E-04 -3.1714130999813E-03
  1.1683602627330E-03  6.7438504712436E-04  9.4351767719639E-04 -5.4365496099619E-04
 -6.0720802529792E-04 -6.6762931211504E-03 -4.6323876124653E-03  3.1125333917123E-03
 -2.9826096988160E-03  2.4447048085546E-03 -3.1349046906204E-03 -2.9826096988160E-03
 -2.4447048085546E-03 -3.1349046906204E-03  9.4351767719639E-04  5.4365496099619E-04
 -6.0720802529792E-04 -6.6762931211504E-03  4.6323876124653E-03  3.1125333917123E-03
 -2.6108892572979E-03 -9.8946237225676E-04  4.0340976543168E-04  0.0000000000000E+00
  1.8031381404452E-02  0.0000000000000E+00  2.6108892572979E-03 -9.8946237225676E-04
 -4.0340976543168E-04 -2.7812929588696E-04  1.1265817338241E-04 -3.9091427653046E-04
 -4.2050981395475E-03 -5.4907037344875E-03  2.4968485343201E-03  1.9358098592583E-03
 -5.2245957281534E-03  5.0184143595091E-03 -1.9358098592583E-03 -5.2245957281534E-03
 -5.0184143595091E-03  2.7812929588696E-04  1.1265817338241E-04  3.9091427653046E-04
  4.2050981395475E-03 -5.4907037344875E-03 -2.4968485343201E-03 -6.8655562856073E-04
 -3.8232970002623E-04 -3.0060438506822E-03 -4.3021773235972E-04  0.0000000000000E+00
  2.0472854223759E-02 -6.8655562856073E-04  3.8232970002623E-04 -3.0060438506822E-03
  4.1996945945897E-04  8.4452170669710E-04  1.9619347969539E-03  4.0420739054082E-03
  3.0880923552086E-03 -3.9977933673036E-03 -3.2544258640568E-03  4.9926414311293E-03
 -7.5515789466596E-03 -3.2544258640568E-03 -4.9926414311293E-03 -7.5515789466596E-03
  4.1996945945897E-04 -8.4452170669710E-04  1.9619347969539E-03  4.0420739054082E-03
 -3.0880923552086E-03 -3.9977933673036E-03  1.0151299160553E-04 -7.2126449728243E-04
  1.2170581436370E-05 -3.1714130999813E-03  2.6108892572979E-03 -6.8655562856073E-04
  1.8404599723539E-02 -6.4643309097391E-04  2.1510886617986E-04 -2.7672807288309E-03
 -1.8114896204731E-03 -2.7786219767412E-03 -3.5469972109560E-05 -2.8708948697314E-04
  6.4214570682636E-04 -9.6138446645663E-03  2.5091019651980E-03 -3.7186009559793E-03
  6.7621607078137E-04 -4.3245595030549E-04 -3.4937681528432E-05 -1.9603574977401E-03
 -1.4823514378907E-03  6.0606756426700E-04 -6.5609177128072E-03 -1.3012723586289E-04
  5.9135266673617E-03  7.2126449728243E-04 -4.2623884638436E-03  7.8573946545790E-04
  1.1683602627330E-03 -9.8946237225676E-04  3.8232970002623E-04 -6.4643309097391E-04
  1.9151036361713E-02 -3.7257948538205E-04 -2.3203845697693E-03 -5.4399246981385E-03
 -5.2241142802748E-03 -2.1563821863915E-05  1.0916458226884E-03 -3.3040043702456E-04
  2.9363914381158E-03 -2.5531521910715E-03  1.4471087201901E-03 -6.9798161541472E-04
  3.7995977979743E-04 -7.2131471355502E-04 -1.9096409108085E-03 -1.0206639357898E-02
  3.9439572545102E-03  3.7876771343335E-04 -1.6462877141622E-03 -2.0569992076574E-04
  1.2170581436370E-05 -7.8573946545790E-04 -3.0060438506822E-03  6.7438504712436E-04
 -4.0340976543168E-04 -3.0060438506822E-03  2.1510886617986E-04 -3.7257948538205E-04
  2.0472854223759E-02 -2.6965413793163E-03 -5.3147361885710E-03 -7.5515789466596E-03
 -9.4136198177657E-04 -5.8556632643460E-05  1.9619347969539E-03 -4.6954033815473E-03
  1.9564925084534E-03 -3.9977933673036E-03  5.2139252231759E-04  7.8596507405364E-04
  1.9619347969539E-03  6.5332947613908E-04  5.0445848636620E-03 -3.9977933673036E-03
  5.9509672433731E-03 -3.2209475744168E-04 -7.5515789466596E-03 -1.9603574977401E-03
  1.9096409108085E-03  6.5332947613908E-04  9.4351767719639E-04 -2.7812929588696E-04
  4.1996945945897E-04 -2.7672807288309E-03 -2.3203845697693E-03 -2.6965413793163E-03
  6.7891308018792E-03  9.9008044686293E-04  3.4371257182601E-03 -4.7059786299430E-04
  6.6796277704777E-04  8.8003505055058E-04 -1.2014682242030E-03 -2.4599457726122E-04
 -1.6629496142234E-03 -6.6506827034092E-04 -1.0858492485373E-03 -9.7697738807264E-04
  5.5818596367658E-04  1.7348347527062E-05 -1.6909853752780E-04 -1.3876303635686E-05
  5.7379973816206E-04  6.6258294114731E-04  1.4823514378907E-03 -1.0206639357898E-02
 -5.0445848636620E-03 -5.4365496099619E-04  1.1265817338241E-04  8.4452170669710E-04
 -1.8114896204731E-03 -5.4399246981385E-03 -5.3147361885710E-03  9.9008044686293E-04
  2.9397821102410E-02  1.7135473996235E-02  1.0239499364241E-03 -4.6826541737088E-04
 -1.1968351306476E-03 -6.0198173663756E-04  2.6260494383782E-04 -7.4228021132959E-04
 -8.6418403415732E-04 -1.7909205110334E-03 -1.3270517310832E-03 -1.7348347527062E-05
 -6.1541688250636E-03  3.7425609036258E-04  6.3594451661157E-04 -7.1232247477984E-04
 -1.6282658048335E-03  6.0606756426700E-04 -3.9439572545102E-03 -3.9977933673036E-03
 -6.0720802529792E-04 -3.9091427653046E-04  1.9619347969539E-03 -2.7786219767412E-03
 -5.2241142802748E-03 -7.5515789466596E-03  3.4371257182601E-03  1.7135473996235E-02
  1.8915744754840E-02  1.4743083268496E-03 -1.0690165054662E-03 -1.7186386271048E-03
 -1.4765071525578E-03 -1.6371514467370E-04 -1.7186386271048E-03 -6.6077181721782E-04
 -1.5096131025355E-03 -1.1175193903976E-03 -1.6909853752780E-04 -3.7425609036258E-04
  9.4041320673952E-04  1.0788280805257E-03 -1.3879465615645E-03 -2.5885725420562E-03
 -6.5609177128072E-03 -3.7876771343335E-04  5.9509672433731E-03 -6.6762931211504E-03
 -4.2050981395475E-03  4.0420739054082E-03 -3.5469972109560E-05 -2.1563821863915E-05
 -9.4136198177657E-04 -4.7059786299430E-04  1.0239499364241E-03  1.4743083268496E-03
  2.4603083346051E-02  9.2948098498457E-03 -1.6558318645757E-02  2.6377116664953E-04
 -5.9996177947473E-04  5.9647210200724E-04 -4.4760801278786E-03 -2.8891865356045E-03
 -2.3956601301114E-04 -1.3876303635686E-05 -6.3594451661157E-04  1.0788280805257E-03
 -2.3538466313796E-03 -1.1083260719000E-04  1.6377492052905E-03  1.3012723586289E-04
 -1.6462877141622E-03  3.2209475744168E-04 -4.6323876124653E-03 -5.4907037344875E-03
  3.0880923552086E-03 -2.8708948697314E-04  1.0916458226884E-03 -5.8556632643460E-05
  6.6796277704777E-04 -4.6826541737088E-04 -1.0690165054662E-03  9.2948098498457E-03
  1.1583868558238E-02 -5.5910988101033E-03 -2.4397462009839E-04 -1.2026344470147E-03
  1.3605502753213E-03 -2.9238832306586E-03 -1.1199027335085E-03 -3.3357167442316E-04
 -5.7379973816206E-04 -7.1232247477984E-04  1.3879465615645E-03  1.1083260719000E-04
 -1.0214214999468E-04 -1.8256137145229E-04  5.9135266673617E-03  2.0569992076574E-04
 -7.5515789466596E-03  3.1125333917123E-03  2.4968485343201E-03 -3.9977933673036E-03
  6.4214570682636E-04 -3.3040043702456E-04  1.9619347969539E-03  8.8003505055058E-04
 -1.1968351306476E-03 -1.7186386271048E-03 -1.6558318645757E-02 -5.5910988101033E-03
  1.8915744754840E-02  1.8864128737381E-04  1.8112967167958E-03 -1.7186386271048E-03
  4.0866455053894E-04  4.0684415939422E-05  9.4041320673952E-04  6.6258294114731E-04
  1.6282658048335E-03 -2.5885725420562E-03  1.6377492052905E-03  1.8256137145229E-04
 -1.1175193903976E-03  6.7621607078137E-04  6.9798161541472E-04  5.2139252231759E-04
 -2.9826096988160E-03  1.9358098592583E-03 -3.2544258640568E-03 -9.6138446645663E-03
  2.9363914381158E-03 -4.6954033815473E-03 -1.2014682242030E-03 -6.0198173663756E-04
 -1.4765071525578E-03  2.6377116664953E-04 -2.4397462009839E-04  1.8864128737381E-04
  2.2888213708504E-02 -1.0284890296709E-02  1.3121192927497E-02 -1.0615455603519E-03
 -3.1072389224757E-05 -1.7414110216730E-03 -6.6506827034092E-04  8.6418403415732E-04
 -6.6077181721782E-04 -4.4760801278786E-03  2.9238832306586E-03  4.0866455053894E-04
  4.3245595030549E-04  3.7995977979743E-04 -7.8596507405364E-04  2.4447048085546E-03
 -5.2245957281534E-03  4.9926414311293E-03  2.5091019651980E-03 -2.5531521910715E-03
  1.9564925084534E-03 -2.4599457726122E-04  2.6260494383782E-04 -1.6371514467370E-04
 -5.9996177947473E-04 -1.2026344470147E-03  1.8112967167958E-03 -1.0284890296709E-02
  1.3298738195785E-02 -1.1544375186132E-02  3.1072389224757E-05  3.3534678193639E-04
  2.4031924326898E-04  1.0858492485373E-03 -1.7909205110334E-03  1.5096131025355E-03
  2.8891865356045E-03 -1.1199027335085E-03 -4.0684415939422E-05 -3.4937681528432E-05
  7.2131471355502E-04  1.9619347969539E-03 -3.1349046906204E-03  5.0184143595091E-03
 -7.5515789466596E-03 -3.7186009559793E-03  1.4471087201901E-03 -3.9977933673036E-03
 -1.6629496142234E-03 -7.4228021132959E-04 -1.7186386271048E-03  5.9647210200724E-04
  1.3605502753213E-03 -1.7186386271048E-03  1.3121192927497E-02 -1.1544375186132E-02
  1.8915744754840E-02 -1.7414110216730E-03 -2.4031924326898E-04 -2.5885725420562E-03
 -9.7697738807264E-04  1.3270517310832E-03 -1.1175193903976E-03 -2.3956601301114E-04
  3.3357167442316E-04  9.4041320673952E-04 -9.6138446645663E-03 -2.9363914381158E-03
 -4.6954033815473E-03 -2.9826096988160E-03 -1.9358098592583E-03 -3.2544258640568E-03
  6.7621607078137E-04 -6.9798161541472E-04  5.2139252231759E-04 -6.6506827034092E-04
 -8.6418403415732E-04 -6.6077181721782E-04 -4.4760801278786E-03 -2.9238832306586E-03
  4.0866455053894E-04 -1.0615455603519E-03  3.1072389224757E-05 -1.7414110216730E-03
  2.2888213708504E-02  1.0284890296709E-02  1.3121192927497E-02 -1.2014682242030E-03
  6.0198173663756E-04 -1.4765071525578E-03  2.6377116664953E-04  2.4397462009839E-04
  1.8864128737381E-04 -2.5091019651980E-03 -2.5531521910715E-03 -1.9564925084534E-03
 -2.4447048085546E-03 -5.2245957281534E-03 -4.9926414311293E-03 -4.3245595030549E-04
  3.7995977979743E-04  7.8596507405364E-04 -1.0858492485373E-03 -1.7909205110334E-03
 -1.5096131025355E-03 -2.8891865356045E-03 -1.1199027335085E-03  4.0684415939422E-05
 -3.1072389224757E-05  3.3534678193639E-04 -2.4031924326898E-04  1.0284890296709E-02
  1.3298738195785E-02  1.1544375186132E-02  2.4599457726122E-04  2.6260494383782E-04
  1.6371514467370E-04  5.9996177947473E-04 -1.2026344470147E-03 -1.8112967167958E-03
 -3.7186009559793E-03 -1.4471087201901E-03 -3.9977933673036E-03 -3.1349046906204E-03
 -5.0184143595091E-03 -7.5515789466596E-03 -3.4937681528432E-05 -7.2131471355502E-04
  1.9619347969539E-03 -9.7697738807264E-04 -1.3270517310832E-03 -1.1175193903976E-03
 -2.3956601301114E-04 -3.3357167442316E-04  9.4041320673952E-04 -1.7414110216730E-03
  2.4031924326898E-04 -2.5885725420562E-03  1.3121192927497E-02  1.1544375186132E-02
  1.8915744754840E-02 -1.6629496142234E-03  7.4228021132959E-04 -1.7186386271048E-03
  5.9647210200724E-04 -1.3605502753213E-03 -1.7186386271048E-03 -2.7672807288309E-03
  2.3203845697693E-03 -2.6965413793163E-03  9.4351767719639E-04  2.7812929588696E-04
  4.1996945945897E-04 -1.9603574977401E-03 -1.9096409108085E-03  6.5332947613908E-04
  5.5818596367658E-04 -1.7348347527062E-05 -1.6909853752780E-04 -1.3876303635686E-05
 -5.7379973816206E-04  6.6258294114731E-04 -6.6506827034092E-04  1.0858492485373E-03
 -9.7697738807264E-04 -1.2014682242030E-03  2.4599457726122E-04 -1.6629496142234E-03
  6.7891308018792E-03 -9.9008044686293E-04  3.4371257182601E-03 -4.7059786299430E-04
 -6.6796277704777E-04  8.8003505055058E-04  1.8114896204731E-03 -5.4399246981385E-03
  5.3147361885710E-03  5.4365496099619E-04  1.1265817338241E-04 -8.4452170669710E-04
 -1.4823514378907E-03 -1.0206639357898E-02  5.0445848636620E-03  1.7348347527062E-05
 -6.1541688250636E-03 -3.7425609036258E-04 -6.3594451661157E-04 -7.1232247477984E-04
  1.6282658048335E-03  8.6418403415732E-04 -1.7909205110334E-03  1.3270517310832E-03
  6.0198173663756E-04  2.6260494383782E-04  7.4228021132959E-04 -9.9008044686293E-04
  2.9397821102410E-02 -1.7135473996235E-02 -1.0239499364241E-03 -4.6826541737088E-04
  1.1968351306476E-03 -2.7786219767412E-03  5.2241142802748E-03 -7.5515789466596E-03
 -6.0720802529792E-04  3.9091427653046E-04  1.9619347969539E-03  6.0606756426700E-04
  3.9439572545102E-03 -3.9977933673036E-03 -1.6909853752780E-04  3.7425609036258E-04
  9.4041320673952E-04  1.0788280805257E-03  1.3879465615645E-03 -2.5885725420562E-03
 -6.6077181721782E-04  1.5096131025355E-03 -1.1175193903976E-03 -1.4765071525578E-03
  1.6371514467370E-04 -1.7186386271048E-03  3.4371257182601E-03 -1.7135473996235E-02
  1.8915744754840E-02  1.4743083268496E-03  1.0690165054662E-03 -1.7186386271048E-03
 -3.5469972109560E-05  2.1563821863915E-05 -9.4136198177657E-04 -6.6762931211504E-03
  4.2050981395475E-03  4.0420739054082E-03 -6.5609177128072E-03  3.7876771343335E-04
  5.9509672433731E-03 -1.3876303635686E-05  6.3594451661157E-04  1.0788280805257E-03
 -2.3538466313796E-03  1.1083260719000E-04  1.6377492052905E-03 -4.4760801278786E-03
  2.8891865356045E-03 -2.3956601301114E-04  2.6377116664953E-04  5.9996177947473E-04
  5.9647210200724E-04 -4.7059786299430E-04 -1.0239499364241E-03  1.4743083268496E-03
  2.4603083346051E-02 -9.2948098498457E-03 -1.6558318645757E-02  2.8708948697314E-04
  1.0916458226884E-03  5.8556632643460E-05  4.6323876124653E-03 -5.4907037344875E-03
 -3.0880923552086E-03 -1.3012723586289E-04 -1.6462877141622E-03 -3.2209475744168E-04
  5.7379973816206E-04 -7.1232247477984E-04 -1.3879465615645E-03 -1.1083260719000E-04
 -1.0214214999468E-04  1.8256137145229E-04  2.9238832306586E-03 -1.1199027335085E-03
  3.3357167442316E-04  2.4397462009839E-04 -1.2026344470147E-03 -1.3605502753213E-03
 -6.6796277704777E-04 -4.6826541737088E-04  1.0690165054662E-03 -9.2948098498457E-03
  1.1583868558238E-02  5.5910988101033E-03  6.4214570682636E-04  3.3040043702456E-04
  1.9619347969539E-03  3.1125333917123E-03 -2.4968485343201E-03 -3.9977933673036E-03
  5.9135266673617E-03 -2.0569992076574E-04 -7.5515789466596E-03  6.6258294114731E-04
 -1.6282658048335E-03 -2.5885725420562E-03  1.6377492052905E-03 -1.8256137145229E-04
 -1.1175193903976E-03  4.0866455053894E-04 -4.0684415939422E-05  9.4041320673952E-04
  1.8864128737381E-04 -1.8112967167958E-03 -1.7186386271048E-03  8.8003505055058E-04
  1.1968351306476E-03 -1.7186386271048E-03 -1.6558318645757E-02  5.5910988101033E-03
  1.8915744754840E-02
